# このファイルは緯度・経度を用いた２点間の距離と方位角の計算結果（一括処理）です。
# 選択された楕円体は「GRS80」です。
# 出力項目は以下の通りです。
# 出発点緯度(dms) 出発点経度(dms) 到着点緯度(dms) 到着点経度(dms) 測地線長(m) 方位角1(dms) 方位角2(dms) コメント
#-----------------------------------------------------------------------------------------------------------------------
  114200.0000   1491800.0000   123600.0000   1483000.0000      132265.119      3185440.76      1384434.57 
  123600.0000   1483000.0000   131800.0000   1474800.0000      108471.732      3153759.29      1352834.54 
  131800.0000   1474800.0000   140000.0000   1470600.0000      108322.470      3154315.84      1353321.13 
  140000.0000   1470600.0000   145400.0000   1464200.0000      108517.261      3363755.02      1563155.67 
  145400.0000   1464200.0000   153000.0000   1460000.0000      100323.972      3113131.28      1312030.54 
  153000.0000   1460000.0000   160000.0000   1450600.0000      111192.064      2995743.70      1194304.20 
  160000.0000   1450600.0000   163000.0000   1443000.0000       84707.766      3105158.90      1304154.46 
  163000.0000   1443000.0000   170000.0000   1440600.0000       69862.821      3222557.81      1421902.80 
  170000.0000   1440600.0000   173600.0000   1440000.0000       67249.207      3505507.38      1705320.33 
  173600.0000   1440000.0000   182400.0000   1432400.0000      108984.948      3242538.96      1441431.46 
  182400.0000   1432400.0000   185400.0000   1423600.0000      100933.733      3032244.73      1230723.73 
  185400.0000   1423600.0000   192400.0000   1421200.0000       69526.276      3224914.06      1424121.67 
  192400.0000   1421200.0000   193600.0000   1413600.0000       66761.909      2892801.62      1091600.59 
  193600.0000   1413600.0000   200000.0000   1404800.0000       94799.828      2975851.60      1174236.02 
  200000.0000   1404800.0000   200600.0000   1401200.0000       63737.136      2800618.64       995358.10 
  200600.0000   1401200.0000   201200.0000   1393600.0000       63697.923      2800643.21       995419.13 
  201200.0000   1393600.0000   203600.0000   1384800.0000       94519.530      2980436.45      1174752.54 
  203600.0000   1384800.0000   211200.0000   1375400.0000      114805.697      3053048.72      1251132.85 
  211200.0000   1375400.0000   215400.0000   1370000.0000      121236.502      3095415.08      1293424.94 
  215400.0000   1370000.0000   223000.0000   1360600.0000      114135.365      3054606.58      1252542.33 
  223000.0000   1360600.0000   232400.0000   1350600.0000      143010.987      3142229.47      1335905.66 
  232400.0000   1350600.0000   241200.0000   1343000.0000      107653.768      3253041.00      1451609.31 
  241200.0000   1343000.0000   250000.0000   1332400.0000      142345.908      3084340.95      1281612.39 
  250000.0000   1332400.0000   253000.0000   1323000.0000      106249.071      3013639.93      1211337.81 
  253000.0000   1323000.0000   260600.0000   1313000.0000      120314.561      3034513.10      1231906.22 
  260600.0000   1313000.0000   265400.0000   1310000.0000      101690.202      3304535.44      1503212.26 
  265400.0000   1310000.0000   273600.0000   1304800.0000       80054.165      3454315.20      1653745.52 
  273600.0000   1304800.0000   282400.0000   1302400.0000       96993.666      3360944.33      1555828.27 
  282400.0000   1302400.0000   293000.0000   1300600.0000      125376.917      3463459.46      1662616.67 
  293000.0000   1300600.0000   305400.0000   1301200.0000      155496.591        33131.01      1833432.11 
  305400.0000   1301200.0000   320600.0000   1313000.0000      181534.924       423148.53      2231234.04 
  320600.0000   1313000.0000   340000.0000   1333000.0000      281583.543       410055.03      2220622.52 
  340000.0000   1333000.0000   362400.0000   1362400.0000      374981.126       435612.94      2253633.08 
  362400.0000   1362400.0000   390000.0000   1414200.0000      549160.987       564226.58      2395702.76 
  390000.0000   1414200.0000   421200.0000   1480000.0000      640516.817       541756.45      2382410.39 
  421200.0000   1480000.0000   450000.0000   1550000.0000      644829.643       584715.79      2433710.78 
  450000.0000   1550000.0000   470000.0000   1620000.0000      585773.503       651251.73      2501512.78 
  470000.0000   1620000.0000   481800.0000   1660000.0000      333410.602       625041.86      2454806.74 
  481800.0000   1660000.0000   492400.0000   1720000.0000      456880.898       721342.99      2564454.77 
  492400.0000   1720000.0000   510000.0000   1773000.0000      430993.162       633122.05      2474500.35 
